S809 Airfoil, OSU data at Re=.75 Million, Clean roughness
Adjusted for Post Stall at r/R=.129**
   1	Number of airfoil tables in this file
      .00	Table ID parameter
    30.00	Stall angle (deg)**
    0	"No longer used, enter zero"		
0	"No longer used, enter zero"		
0	"No longer used, enter zero"		
     -.38	Zero lift angle of attack (deg)
    7.12499	Cn slope for zero lift (dimensionless)
     3.50 	Cn at stall value for positive angle of attack**
     -.8000	Cn at stall value for negative angle of attack
     2.0000	Angle of attack for minimum CD (deg)
      .0116	Minimum CD value
  -180.00	   .000	  .1748	  .0000
  -170.00	   .230	  .2116	  .4000
  -160.00	   .460	  .3172	  .1018
  -150.00	   .494	  .4784	  .1333
  -140.00	   .510	  .6743	  .1727
  -130.00	   .486	  .8799	  .2132
  -120.00	   .415	 1.0684	  .2498
  -110.00	   .302	 1.2148	  .2779
  -100.00	   .159	 1.2989	  .2933
   -90.00	   .000	 1.3080	  .2936
   -80.00	  -.159	 1.2989	  .2933
   -70.00	  -.302	 1.2148	  .2779
   -60.00	  -.415	 1.0684	  .2498
   -50.00	  -.486	  .8799	  .2132
   -40.00	  -.510	  .6743	  .1727
   -30.00	  -.494	  .4784	  .1333
   -20.10	  -.560	  .3027	  .0612
   -18.10	  -.670	  .3069	  .0904
   -16.10	  -.790	  .1928	  .0293
   -14.20	  -.840	  .0898	 -.0090
   -12.20	  -.700	  .0553	 -.0045
   -10.10	  -.630	  .0390	 -.0044
    -8.20	  -.560	  .0233	 -.0051
    -6.10	  -.640	  .0131	  .0018
-4.1	-0.429	0.0134	 -.0216
-2.1	-0.202	0.0119	 -.0282
0.1	0.059	0.0122	 -.0346
2	0.294	0.0116	 -.0405
4.1	0.539	0.0144	 -.0455
6.2	0.789	0.0146	 -.0507
8.1	0.970	0.0162	 -.0404
10.2	1.134	0.0274	 -.0321
11.3	1.210	0.0303	 -.0281
12.1	1.279	0.0369	 -.0284
13.2	1.375	0.0509	 -.0322
14.2	1.455	0.0648	 -.0361
15.3	1.539	0.0776	 -.0363
16.3	1.604	0.0917	 -.0393
17.1	1.639	0.0994	 -.0398
18.1	1.676	0.2306	 -.0983
19.1	1.691	0.3142	 -.1242
20.1	1.748	0.3186	 -.1155
30	2.484	0.4784	 -.2459
40	2.459	0.6743	 -.2813
50	2.133	0.8799	 -.3134
60	1.599	1.0684	 -.3388
70	0.971	1.2148	 -.3557
80	0.385	1.2989	 -.3630
90	0.000	1.3080	 -.3604
   100.00	  -.159	 1.2989	 -.3600
   110.00	  -.302	 1.2148	 -.3446
   120.00	  -.415	 1.0684	 -.3166
   130.00	  -.486	  .8799	 -.2800
   140.00	  -.510	  .6743	 -.2394
   150.00	  -.494	  .4784	 -.2001
   160.00	  -.460	  .3172	 -.1685
   170.00	  -.230	  .2116	 -.5000
   180.00	   .000	  .1748	  .0000